# Time,Channel A,Channel B (us),(V),(V)
-500.18989714,-0.25537890,-0.41132850
-499.86989714,-0.02362133,-0.20566420
-499.54989714,0.14569540,-0.06259346
-499.22989714,0.27048560,0.04464858
-498.90989715,0.35071870,0.11618400
-498.58989715,0.40418710,0.16983550
-498.26989715,0.44877470,0.20560320
-497.94989715,0.46659750,0.23242900
-497.62989715,0.46659750,0.23242900
-497.30989716,0.47550890,0.24137090
-496.98989716,0.48442030,0.25031280
-496.66989716,0.48442030,0.25031280
-496.34989716,0.48442030,0.25031280
-496.02989716,0.47550890,0.25925470
-495.70989717,0.48442030,0.25925470
-495.38989717,0.48442030,0.25925470
-495.06989717,0.48442030,0.25031280
-494.74989717,0.48442030,0.25925470
-494.42989717,0.47550890,0.25925470
-494.10989718,0.48442030,0.25925470
-493.78989718,0.48442030,0.25925470
-493.46989718,0.48442030,0.25925470
-493.14989718,0.47550890,0.25031280
-492.82989718,0.48442030,0.26819670
-492.50989719,0.48442030,0.25031280
-492.18989719,0.48442030,0.25925470
-491.86989719,0.48442030,0.25925470
-491.54989719,0.48442030,0.25925470
-491.22989719,0.48442030,0.26819670
-490.90989720,0.48442030,0.25925470
-490.58989720,0.47550890,0.25031280
-490.26989720,0.48442030,0.25925470
-489.94989720,0.48442030,0.25925470
-489.62989720,0.48442030,0.26819670
-489.30989720,0.48442030,0.25925470
-488.98989721,0.48442030,0.25925470
-488.66989721,0.48442030,0.25925470
-488.34989721,0.48442030,0.26819670
-488.02989721,0.48442030,0.25925470
-487.70989721,0.48442030,0.25925470
-487.38989722,0.48442030,0.25925470
-487.06989722,0.48442030,0.25925470
-486.74989722,0.48442030,0.26819670
-486.42989722,0.48442030,0.26819670
-486.10989722,0.48442030,0.25925470
-485.78989723,0.48442030,0.26819670
-485.46989723,0.48442030,0.25925470
-485.14989723,0.48442030,0.25925470
-484.82989723,0.48442030,0.25925470
-484.50989723,0.48442030,0.26819670
-484.18989724,0.47550890,0.25925470
-483.86989724,0.48442030,0.25925470
-483.54989724,0.48442030,0.26819670
-483.22989724,0.48442030,0.26819670
-482.90989724,0.48442030,0.26819670
-482.58989725,0.48442030,0.26819670
-482.26989725,0.48442030,0.25925470
-481.94989725,0.48442030,0.26819670
-481.62989725,0.47550890,0.26819670
-481.30989725,0.47550890,0.26819670
-480.98989726,0.48442030,0.25925470
-480.66989726,0.48442030,0.26819670
-480.34989726,0.48442030,0.26819670
-480.02989726,0.48442030,0.26819670
-479.70989726,0.48442030,0.26819670
-479.38989727,0.48442030,0.26819670
-479.06989727,0.47550890,0.26819670
-478.74989727,0.48442030,0.26819670
-478.42989727,0.48442030,0.26819670
-478.10989727,0.48442030,0.26819670
-477.78989727,0.48442030,0.26819670
-477.46989728,0.48442030,0.26819670
-477.14989728,0.48442030,0.26819670
-476.82989728,0.48442030,0.26819670
-476.50989728,0.47550890,0.26819670
-476.18989728,0.48442030,0.26819670
-475.86989729,0.48442030,0.25925470
-475.54989729,0.48442030,0.26819670
-475.22989729,0.48442030,0.26819670
-474.90989729,0.48442030,0.26819670
-474.58989729,0.48442030,0.26819670
-474.26989730,0.48442030,0.26819670
-473.94989730,0.48442030,0.25925470
-473.62989730,0.48442030,0.26819670
-473.30989730,0.48442030,0.26819670
-472.98989730,0.48442030,0.26819670
-472.66989731,0.48442030,0.26819670
-472.34989731,0.48442030,0.26819670
-472.02989731,0.48442030,0.26819670
-471.70989731,0.48442030,0.26819670
-471.38989731,0.48442030,0.26819670
-471.06989732,0.48442030,0.26819670
-470.74989732,0.48442030,0.26819670
-470.42989732,0.48442030,0.26819670
-470.10989732,0.47550890,0.26819670
-469.78989732,0.48442030,0.26819670
-469.46989733,0.46659750,0.30396430
-469.14989733,0.48442030,0.25925470
-468.82989733,0.48442030,0.27713860
-468.50989733,0.48442030,0.26819670
-468.18989733,0.48442030,0.26819670
-467.86989734,0.48442030,0.26819670
-467.54989734,0.48442030,0.25925470
-467.22989734,0.48442030,0.26819670
-466.90989734,0.46659750,0.21454510
-466.58989734,0.46659750,0.27713860
-466.26989734,0.48442030,0.27713860
-465.94989735,0.48442030,0.26819670
-465.62989735,0.48442030,0.26819670
-465.30989735,0.48442030,0.26819670
-464.98989735,0.48442030,0.26819670
-464.66989735,0.48442030,0.28608050
-464.34989736,0.48442030,0.26819670
-464.02989736,0.48442030,0.26819670
-463.70989736,0.48442030,0.26819670
-463.38989736,0.48442030,0.26819670
-463.06989736,0.48442030,0.26819670
-462.74989737,0.48442030,0.26819670
-462.42989737,0.48442030,0.27713860
-462.10989737,0.48442030,0.26819670
-461.78989737,0.48442030,0.25925470
-461.46989737,0.48442030,0.26819670
-461.14989738,0.48442030,0.26819670
-460.82989738,0.48442030,0.26819670
-460.50989738,0.48442030,0.26819670
-460.18989738,0.48442030,0.26819670
-459.86989738,0.48442030,0.26819670
-459.54989739,0.48442030,0.26819670
-459.22989739,0.48442030,0.26819670
-458.90989739,0.48442030,0.26819670
-458.58989739,0.48442030,0.26819670
-458.26989739,0.48442030,0.26819670
-457.94989740,0.48442030,0.26819670
-457.62989740,0.48442030,0.26819670
-457.30989740,0.48442030,0.26819670
-456.98989740,0.48442030,0.26819670
-456.66989740,0.48442030,0.28608050
-456.34989741,0.47550890,0.26819670
-456.02989741,0.48442030,0.27713860
-455.70989741,0.48442030,0.26819670
-455.38989741,0.48442030,0.25925470
-455.06989741,0.48442030,0.27713860
-454.74989741,0.48442030,0.25925470
-454.42989742,0.48442030,0.26819670
-454.10989742,0.48442030,0.26819670
-453.78989742,0.48442030,0.26819670
-453.46989742,0.48442030,0.26819670
-453.14989742,0.48442030,0.26819670
-452.82989743,0.48442030,0.26819670
-452.50989743,0.48442030,0.26819670
-452.18989743,0.48442030,0.26819670
-451.86989743,0.48442030,0.26819670
-451.54989743,0.48442030,0.26819670
-451.22989744,0.48442030,0.26819670
-450.90989744,0.48442030,0.26819670
-450.58989744,0.27939700,0.17877740
-450.26989744,-0.05038606,-0.08941923
-449.94989744,-0.26429030,-0.28614150
-449.62989745,-0.38911100,-0.40238650
-449.30989745,-0.45149080,-0.45603810
-448.98989745,-0.47822510,-0.48286380
-448.66989745,-0.49607840,-0.49180580
-448.34989745,-0.49607840,-0.50074770
-448.02989746,-0.49607840,-0.50968960
-447.70989746,-0.49607840,-0.51863160
-447.38989746,-0.49607840,-0.50074770
-447.06989746,-0.49607840,-0.51863160
-446.74989746,-0.49607840,-0.51863160
-446.42989747,-0.49607840,-0.51863160
-446.10989747,-0.49607840,-0.51863160
-445.78989747,-0.49607840,-0.51863160
-445.46989747,-0.49607840,-0.51863160
-445.14989747,-0.49607840,-0.51863160
-444.82989748,-0.49607840,-0.51863160
-444.50989748,-0.49607840,-0.51863160
-444.18989748,-0.49607840,-0.51863160
-443.86989748,-0.49607840,-0.51863160
-443.54989748,-0.49607840,-0.51863160
-443.22989748,-0.49607840,-0.51863160
-442.90989749,-0.49607840,-0.52757350
-442.58989749,-0.49607840,-0.52757350
-442.26989749,-0.49607840,-0.51863160
-441.94989749,-0.49607840,-0.51863160
-441.62989749,-0.49607840,-0.51863160
-441.30989750,-0.49607840,-0.51863160
-440.98989750,-0.49607840,-0.52757350
-440.66989750,-0.49607840,-0.52757350
-440.34989750,-0.49607840,-0.52757350
-440.02989750,-0.49607840,-0.52757350
-439.70989751,-0.49607840,-0.52757350
-439.38989751,-0.49607840,-0.52757350
-439.06989751,-0.49607840,-0.52757350
-438.74989751,-0.49607840,-0.52757350
-438.42989751,-0.49607840,-0.52757350
-438.10989752,-0.49607840,-0.52757350
-437.78989752,-0.49607840,-0.52757350
-437.46989752,-0.48713650,-0.51863160
-437.14989752,-0.49607840,-0.52757350
-436.82989752,-0.49607840,-0.52757350
-436.50989753,-0.49607840,-0.52757350
-436.18989753,-0.49607840,-0.52757350
-435.86989753,-0.49607840,-0.52757350
-435.54989753,-0.49607840,-0.52757350
-435.22989753,-0.49607840,-0.52757350
-434.90989754,-0.49607840,-0.52757350
-434.58989754,-0.49607840,-0.52757350
-434.26989754,-0.49607840,-0.52757350
-433.94989754,-0.49607840,-0.52757350
-433.62989754,-0.49607840,-0.52757350
-433.30989755,-0.49607840,-0.52757350
-432.98989755,-0.49607840,-0.54545730
-432.66989755,-0.49607840,-0.55439930
-432.34989755,-0.50498980,-0.55439930
-432.02989755,-0.49607840,-0.52757350
-431.70989755,-0.49607840,-0.51863160
-431.38989756,-0.49607840,-0.52757350
-431.06989756,-0.49607840,-0.52757350
-430.74989756,-0.49607840,-0.52757350
-430.42989756,-0.49607840,-0.53651540
-430.10989756,-0.49607840,-0.52757350
-429.78989757,-0.47822510,-0.49180580
-429.46989757,-0.49607840,-0.54545730
-429.14989757,-0.49607840,-0.52757350
-428.82989757,-0.49607840,-0.53651540
-428.50989757,-0.49607840,-0.52757350
-428.18989758,-0.49607840,-0.52757350
-427.86989758,-0.49607840,-0.52757350
-427.54989758,-0.49607840,-0.53651540
-427.22989758,-0.49607840,-0.53651540
-426.90989758,-0.49607840,-0.53651540
-426.58989759,-0.49607840,-0.53651540
-426.26989759,-0.49607840,-0.52757350
-425.94989759,-0.49607840,-0.52757350
-425.62989759,-0.49607840,-0.53651540
-425.30989759,-0.49607840,-0.52757350
-424.98989760,-0.49607840,-0.52757350
-424.66989760,-0.49607840,-0.53651540
-424.34989760,-0.49607840,-0.52757350
-424.02989760,-0.49607840,-0.52757350
-423.70989760,-0.49607840,-0.52757350
-423.38989761,-0.49607840,-0.53651540
-423.06989761,-0.49607840,-0.52757350
-422.74989761,-0.49607840,-0.53651540
-422.42989761,-0.49607840,-0.52757350
-422.10989761,-0.49607840,-0.53651540
-421.78989762,-0.49607840,-0.52757350
-421.46989762,-0.49607840,-0.53651540
-421.14989762,-0.49607840,-0.52757350
-420.82989762,-0.49607840,-0.52757350
-420.50989762,-0.49607840,-0.53651540
-420.18989762,-0.49607840,-0.53651540
-419.86989763,-0.49607840,-0.53651540
-419.54989763,-0.49607840,-0.52757350
-419.22989763,-0.49607840,-0.53651540
-418.90989763,-0.49607840,-0.52757350
-418.58989763,-0.49607840,-0.54545730
-418.26989764,-0.49607840,-0.53651540
-417.94989764,-0.49607840,-0.52757350
-417.62989764,-0.49607840,-0.53651540
-417.30989764,-0.49607840,-0.52757350
-416.98989764,-0.49607840,-0.53651540
-416.66989765,-0.49607840,-0.53651540
-416.34989765,-0.49607840,-0.52757350
-416.02989765,-0.49607840,-0.52757350
-415.70989765,-0.49607840,-0.52757350
-415.38989765,-0.49607840,-0.53651540
-415.06989766,-0.49607840,-0.53651540
-414.74989766,-0.49607840,-0.52757350
-414.42989766,-0.49607840,-0.52757350
-414.10989766,-0.49607840,-0.52757350
-413.78989766,-0.49607840,-0.52757350
-413.46989767,-0.49607840,-0.52757350
-413.14989767,-0.49607840,-0.52757350
-412.82989767,-0.49607840,-0.53651540
-412.50989767,-0.49607840,-0.52757350
-412.18989767,-0.49607840,-0.52757350
-411.86989768,-0.49607840,-0.53651540
-411.54989768,-0.49607840,-0.52757350
-411.22989768,-0.49607840,-0.52757350
-410.90989768,-0.49607840,-0.52757350
-410.58989768,-0.49607840,-0.52757350
-410.26989769,-0.49607840,-0.53651540
-409.94989769,-0.49607840,-0.53651540
-409.62989769,-0.49607840,-0.52757350
-409.30989769,-0.49607840,-0.53651540
-408.98989769,-0.49607840,-0.52757350
-408.66989769,-0.49607840,-0.53651540
-408.34989770,-0.49607840,-0.53651540
-408.02989770,-0.49607840,-0.53651540
-407.70989770,-0.49607840,-0.53651540
-407.38989770,-0.49607840,-0.53651540
-407.06989770,-0.49607840,-0.52757350
-406.74989771,-0.49607840,-0.52757350
-406.42989771,-0.49607840,-0.52757350
-406.10989771,-0.49607840,-0.52757350
-405.78989771,-0.49607840,-0.52757350
-405.46989771,-0.49607840,-0.52757350
-405.14989772,-0.49607840,-0.52757350
-404.82989772,-0.49607840,-0.53651540
-404.50989772,-0.49607840,-0.53651540
-404.18989772,-0.49607840,-0.52757350
-403.86989772,-0.49607840,-0.53651540
-403.54989773,-0.49607840,-0.52757350
-403.22989773,-0.49607840,-0.52757350
-402.90989773,-0.49607840,-0.53651540
-402.58989773,-0.49607840,-0.52757350
-402.26989773,-0.49607840,-0.52757350
-401.94989774,-0.49607840,-0.53651540
-401.62989774,-0.49607840,-0.53651540
-401.30989774,-0.49607840,-0.53651540
-400.98989774,-0.49607840,-0.52757350
-400.66989774,-0.49607840,-0.53651540
-400.34989775,-0.44257940,-0.51863160
-400.02989775,-0.21082190,-0.36661880
-399.70989775,0.02093570,-0.16989650
-399.38989775,0.16351820,-0.04470962
-399.06989775,0.28830840,0.06253242
-398.74989776,0.35963010,0.12512590
-398.42989776,0.41309850,0.18771930
-398.10989776,0.44877470,0.21454510
-397.78989776,0.46659750,0.23242900
-397.46989776,0.46659750,0.23242900
-397.14989776,0.46659750,0.24137090
-396.82989777,0.48442030,0.24137090
-396.50989777,0.48442030,0.25031280
-396.18989777,0.48442030,0.25031280
-395.86989777,0.46659750,0.24137090
-395.54989777,0.48442030,0.24137090
-395.22989778,0.48442030,0.26819670
-394.90989778,0.47550890,0.25031280
-394.58989778,0.48442030,0.25925470
-394.26989778,0.48442030,0.25925470
-393.94989778,0.48442030,0.25925470
-393.62989779,0.48442030,0.25925470
-393.30989779,0.50224310,0.33079010
-392.98989779,0.46659750,0.26819670
-392.66989779,0.48442030,0.25925470
-392.34989779,0.48442030,0.25925470
-392.02989780,0.48442030,0.25925470
-391.70989780,0.48442030,0.25925470
-391.38989780,0.48442030,0.25925470
-391.06989780,0.48442030,0.25925470
-390.74989780,0.48442030,0.25925470
-390.42989781,0.48442030,0.25925470
-390.10989781,0.48442030,0.26819670
-389.78989781,0.47550890,0.25925470
-389.46989781,0.48442030,0.25925470
-389.14989781,0.48442030,0.25925470
-388.82989782,0.48442030,0.25925470
-388.50989782,0.48442030,0.25925470
-388.18989782,0.48442030,0.25925470
-387.86989782,0.48442030,0.25925470
-387.54989782,0.48442030,0.26819670
-387.22989783,0.48442030,0.26819670
-386.90989783,0.48442030,0.26819670
-386.58989783,0.48442030,0.25925470
-386.26989783,0.48442030,0.26819670
-385.94989783,0.48442030,0.26819670
-385.62989783,0.48442030,0.25925470
-385.30989784,0.48442030,0.26819670
-384.98989784,0.48442030,0.26819670
-384.66989784,0.48442030,0.25925470
-384.34989784,0.48442030,0.26819670
-384.02989784,0.48442030,0.26819670
-383.70989785,0.48442030,0.26819670
-383.38989785,0.48442030,0.26819670
-383.06989785,0.48442030,0.27713860
-382.74989785,0.47550890,0.26819670
-382.42989785,0.48442030,0.26819670
-382.10989786,0.48442030,0.26819670
-381.78989786,0.48442030,0.25925470
-381.46989786,0.48442030,0.27713860
-381.14989786,0.48442030,0.25925470
-380.82989786,0.48442030,0.25925470
-380.50989787,0.48442030,0.26819670
-380.18989787,0.48442030,0.25925470
-379.86989787,0.48442030,0.26819670
-379.54989787,0.48442030,0.26819670
-379.22989787,0.48442030,0.26819670
-378.90989788,0.48442030,0.26819670
-378.58989788,0.48442030,0.26819670
-378.26989788,0.48442030,0.26819670
-377.94989788,0.48442030,0.26819670
-377.62989788,0.48442030,0.26819670
-377.30989789,0.48442030,0.26819670
-376.98989789,0.48442030,0.25925470
-376.66989789,0.48442030,0.26819670
-376.34989789,0.48442030,0.26819670
-376.02989789,0.48442030,0.26819670
-375.70989790,0.48442030,0.26819670
-375.38989790,0.48442030,0.26819670
-375.06989790,0.48442030,0.26819670
-374.74989790,0.48442030,0.26819670
-374.42989790,0.48442030,0.26819670
-374.10989790,0.48442030,0.25925470
-373.78989791,0.48442030,0.26819670
-373.46989791,0.48442030,0.26819670
-373.14989791,0.48442030,0.26819670
-372.82989791,0.47550890,0.26819670
-372.50989791,0.48442030,0.26819670
-372.18989792,0.48442030,0.26819670
-371.86989792,0.48442030,0.26819670
-371.54989792,0.48442030,0.26819670
-371.22989792,0.48442030,0.26819670
-370.90989792,0.48442030,0.26819670
-370.58989793,0.48442030,0.26819670
-370.26989793,0.47550890,0.26819670
-369.94989793,0.47550890,0.26819670
-369.62989793,0.48442030,0.26819670
-369.30989793,0.48442030,0.26819670
-368.98989794,0.48442030,0.26819670
-368.66989794,0.47550890,0.26819670
-368.34989794,0.48442030,0.26819670
-368.02989794,0.48442030,0.26819670
-367.70989794,0.48442030,0.26819670
-367.38989795,0.48442030,0.26819670
-367.06989795,0.48442030,0.26819670
-366.74989795,0.48442030,0.26819670
-366.42989795,0.48442030,0.26819670
-366.10989795,0.48442030,0.27713860
-365.78989796,0.48442030,0.26819670
-365.46989796,0.48442030,0.26819670
-365.14989796,0.48442030,0.26819670
-364.82989796,0.48442030,0.26819670
-364.50989796,0.48442030,0.26819670
-364.18989797,0.48442030,0.26819670
-363.86989797,0.48442030,0.26819670
-363.54989797,0.48442030,0.26819670
-363.22989797,0.48442030,0.26819670
-362.90989797,0.48442030,0.26819670
-362.58989797,0.48442030,0.26819670
-362.26989798,0.48442030,0.26819670
-361.94989798,0.48442030,0.26819670
-361.62989798,0.48442030,0.26819670
-361.30989798,0.47550890,0.25925470
-360.98989798,0.48442030,0.27713860
-360.66989799,0.48442030,0.26819670
-360.34989799,0.48442030,0.27713860
-360.02989799,0.48442030,0.26819670
-359.70989799,0.48442030,0.26819670
-359.38989799,0.48442030,0.30396430
-359.06989800,0.48442030,0.25925470
-358.74989800,0.48442030,0.27713860
-358.42989800,0.48442030,0.26819670
-358.10989800,0.48442030,0.26819670
-357.78989800,0.48442030,0.26819670
-357.46989801,0.48442030,0.26819670
-357.14989801,0.48442030,0.26819670
-356.82989801,0.45768610,0.33973210
-356.50989801,0.48442030,0.30396430
-356.18989801,0.48442030,0.25925470
-355.86989802,0.48442030,0.26819670
-355.54989802,0.48442030,0.26819670
-355.22989802,0.48442030,0.26819670
-354.90989802,0.48442030,0.27713860
-354.58989802,0.48442030,0.25925470
-354.26989803,0.48442030,0.26819670
-353.94989803,0.48442030,0.26819670
-353.62989803,0.48442030,0.26819670
-353.30989803,0.48442030,0.26819670
-352.98989803,0.48442030,0.26819670
-352.66989804,0.48442030,0.26819670
-352.34989804,0.48442030,0.26819670
-352.02989804,0.48442030,0.28608050
-351.70989804,0.48442030,0.26819670
-351.38989804,0.48442030,0.26819670
-351.06989804,0.48442030,0.26819670
-350.74989805,0.48442030,0.26819670
-350.42989805,0.19919430,0.13406780
-350.10989805,-0.10385450,-0.12518690
-349.78989805,-0.29996640,-0.31296730
-349.46989805,-0.40693380,-0.41132850
-349.14989806,-0.46040220,-0.46498000
-348.82989806,-0.47822510,-0.48286380
-348.50989806,-0.49607840,-0.50074770
-348.18989806,-0.49607840,-0.50968960
-347.86989806,-0.49607840,-0.50968960
-347.54989807,-0.49607840,-0.50968960
-347.22989807,-0.49607840,-0.51863160
-346.90989807,-0.49607840,-0.51863160
-346.58989807,-0.49607840,-0.51863160
-346.26989807,-0.49607840,-0.51863160
-345.94989808,-0.49607840,-0.51863160
-345.62989808,-0.49607840,-0.51863160
-345.30989808,-0.49607840,-0.51863160
-344.98989808,-0.49607840,-0.51863160
-344.66989808,-0.49607840,-0.52757350
-344.34989809,-0.49607840,-0.51863160
-344.02989809,-0.49607840,-0.51863160
-343.70989809,-0.49607840,-0.51863160
-343.38989809,-0.49607840,-0.51863160
-343.06989809,-0.49607840,-0.52757350
-342.74989810,-0.49607840,-0.51863160
-342.42989810,-0.49607840,-0.51863160
-342.10989810,-0.49607840,-0.52757350
-341.78989810,-0.49607840,-0.51863160
-341.46989810,-0.49607840,-0.52757350
-341.14989811,-0.49607840,-0.51863160
-340.82989811,-0.49607840,-0.52757350
-340.50989811,-0.49607840,-0.52757350
-340.18989811,-0.49607840,-0.52757350
-339.86989811,-0.49607840,-0.52757350
-339.54989811,-0.49607840,-0.52757350
-339.22989812,-0.49607840,-0.52757350
-338.90989812,-0.49607840,-0.52757350
-338.58989812,-0.49607840,-0.51863160
-338.26989812,-0.49607840,-0.52757350
-337.94989812,-0.49607840,-0.52757350
-337.62989813,-0.49607840,-0.52757350
-337.30989813,-0.49607840,-0.52757350
-336.98989813,-0.49607840,-0.52757350
-336.66989813,-0.49607840,-0.52757350
-336.34989813,-0.49607840,-0.52757350
-336.02989814,-0.49607840,-0.52757350
-335.70989814,-0.49607840,-0.52757350
-335.38989814,-0.49607840,-0.52757350
-335.06989814,-0.49607840,-0.52757350
-334.74989814,-0.49607840,-0.52757350
-334.42989815,-0.49607840,-0.52757350
-334.10989815,-0.49607840,-0.52757350
-333.78989815,-0.49607840,-0.52757350
-333.46989815,-0.49607840,-0.52757350
-333.14989815,-0.49607840,-0.52757350
-332.82989816,-0.49607840,-0.52757350
-332.50989816,-0.49607840,-0.52757350
-332.18989816,-0.49607840,-0.52757350
-331.86989816,-0.49607840,-0.52757350
-331.54989816,-0.49607840,-0.52757350
-331.22989817,-0.49607840,-0.52757350
-330.90989817,-0.49607840,-0.52757350
-330.58989817,-0.49607840,-0.53651540
-330.26989817,-0.49607840,-0.52757350
-329.94989817,-0.49607840,-0.53651540
-329.62989818,-0.49607840,-0.52757350
-329.30989818,-0.49607840,-0.52757350
-328.98989818,-0.49607840,-0.52757350
-328.66989818,-0.49607840,-0.52757350
-328.34989818,-0.49607840,-0.52757350
-328.02989818,-0.49607840,-0.52757350
-327.70989819,-0.49607840,-0.52757350
-327.38989819,-0.49607840,-0.52757350
